time,omega,cmd
9.536743164062500000e-07,0.000000000000000000e+00,0.000000000000000000e+00
4.940867424011230469e-02,0.000000000000000000e+00,0.000000000000000000e+00
9.926414489746093750e-02,0.000000000000000000e+00,0.000000000000000000e+00
1.492440700531005859e-01,0.000000000000000000e+00,0.000000000000000000e+00
1.993176937103271484e-01,0.000000000000000000e+00,0.000000000000000000e+00
2.494516372680664062e-01,0.000000000000000000e+00,0.000000000000000000e+00
2.994174957275390625e-01,0.000000000000000000e+00,0.000000000000000000e+00
3.493146896362304688e-01,0.000000000000000000e+00,0.000000000000000000e+00
3.992569446563720703e-01,0.000000000000000000e+00,0.000000000000000000e+00
4.492704868316650391e-01,0.000000000000000000e+00,0.000000000000000000e+00
4.994230270385742188e-01,0.000000000000000000e+00,0.000000000000000000e+00
5.493128299713134766e-01,0.000000000000000000e+00,5.000000000000000000e-01
5.993704795837402344e-01,0.000000000000000000e+00,5.000000000000000000e-01
6.492495536804199219e-01,2.144025318089716414e+00,5.000000000000000000e-01
6.994621753692626953e-01,7.682757389821484040e+00,5.000000000000000000e-01
7.493309974670410156e-01,1.578240859149374842e+01,5.000000000000000000e-01
7.993166446685791016e-01,2.519229748755417120e+01,5.000000000000000000e-01
8.492753505706787109e-01,3.537641774848032128e+01,5.000000000000000000e-01
8.993747234344482422e-01,4.389296276200336422e+01,5.000000000000000000e-01
9.493923187255859375e-01,4.961036361024260799e+01,5.000000000000000000e-01
9.993860721588134766e-01,5.330285165806378700e+01,5.000000000000000000e-01
1.049274444580078125e+00,5.568510201149680228e+01,5.000000000000000000e-01
1.099264621734619141e+00,5.753134603540739533e+01,5.000000000000000000e-01
1.149266958236694336e+00,5.919892128281050248e+01,5.000000000000000000e-01
1.199356555938720703e+00,6.039004645952701367e+01,5.000000000000000000e-01
1.249248027801513672e+00,6.134294660090021978e+01,5.000000000000000000e-01
1.299271583557128906e+00,6.217673422460178756e+01,5.000000000000000000e-01
1.349190473556518555e+00,6.283185307179585521e+01,5.000000000000000000e-01
1.399348258972167969e+00,6.324874688364663911e+01,5.000000000000000000e-01
1.449407339096069336e+00,6.384430947200488760e+01,5.000000000000000000e-01
1.499264478683471680e+00,6.378475321316906133e+01,5.000000000000000000e-01
1.549235105514526367e+00,6.384430947200489470e+01,5.000000000000000000e-01
1.599370479583740234e+00,6.372519695433324216e+01,5.000000000000000000e-01
1.649317026138305664e+00,6.390386573084072097e+01,5.000000000000000000e-01
1.699408292770385742e+00,6.372519695433324927e+01,5.000000000000000000e-01
1.749264717102050781e+00,6.420164702501983811e+01,5.000000000000000000e-01
1.799252033233642578e+00,6.438031580152730271e+01,5.000000000000000000e-01
1.849168777465820312e+00,6.467809709570644827e+01,5.000000000000000000e-01
1.899390935897827148e+00,6.449942831919896946e+01,5.000000000000000000e-01
1.949420928955078125e+00,6.461854083687062200e+01,5.000000000000000000e-01
1.999247312545776367e+00,6.402297824851237351e+01,5.000000000000000000e-01
2.049115180969238281e+00,6.378475321316907554e+01,5.000000000000000000e-01
2.099251508712768555e+00,6.378475321316907554e+01,5.000000000000000000e-01
2.149435043334960938e+00,6.402297824851237351e+01,5.000000000000000000e-01
2.199325561523437500e+00,6.378475321316906133e+01,5.000000000000000000e-01
2.249231576919555664e+00,6.402297824851235930e+01,5.000000000000000000e-01
2.299476146697998047e+00,6.402297824851235930e+01,5.000000000000000000e-01
2.349274158477783203e+00,6.396342198967653303e+01,5.000000000000000000e-01
2.399460077285766602e+00,6.348697191898993708e+01,5.000000000000000000e-01
2.449372529983520508e+00,6.366564069549740168e+01,5.000000000000000000e-01
2.499242067337036133e+00,6.348697191898993708e+01,5.000000000000000000e-01
2.549358129501342773e+00,6.336785940131828454e+01,5.000000000000000000e-01
2.599275350570678711e+00,6.342741566015411081e+01,5.000000000000000000e-01
2.649440765380859375e+00,6.378475321316906133e+01,5.000000000000000000e-01
2.699383258819580078e+00,6.372519695433324216e+01,5.000000000000000000e-01
2.749250888824462891e+00,6.378475321316906133e+01,5.000000000000000000e-01
2.799391269683837891e+00,6.408253450734818557e+01,5.000000000000000000e-01
2.849313497543334961e+00,6.408253450734818557e+01,5.000000000000000000e-01
2.899414777755737305e+00,6.408253450734818557e+01,5.000000000000000000e-01
2.949217319488525391e+00,6.408253450734818557e+01,5.000000000000000000e-01
2.999216079711914062e+00,6.420164702501983811e+01,5.000000000000000000e-01
3.049253702163696289e+00,6.420164702501983811e+01,5.000000000000000000e-01
3.099374055862426758e+00,5.133749511648153430e+01,-5.000000000000000000e-01
3.149413347244262695e+00,6.426120328385566438e+01,-5.000000000000000000e-01
3.199258327484130859e+00,5.818646488260147009e+01,-5.000000000000000000e-01
3.249269008636474609e+00,4.460763786803327235e+01,-5.000000000000000000e-01
3.299263000488281250e+00,2.817011042934544207e+01,5.000000000000000000e-01
3.349379777908325195e+00,2.197625951041959524e+01,5.000000000000000000e-01
3.399329185485839844e+00,-7.087194801463229332e+00,5.000000000000000000e-01
3.449210166931152344e+00,-1.143480169647848754e+01,5.000000000000000000e-01
3.499247789382934570e+00,-4.824056965701863042e+00,5.000000000000000000e-01
3.549271821975708008e+00,6.610744730776621836e+00,5.000000000000000000e-01
3.599427223205566406e+00,2.203581576925541796e+01,5.000000000000000000e-01
3.649360418319702148e+00,3.543597400731614755e+01,-5.000000000000000000e-01
3.699270725250244141e+00,4.329740017364510862e+01,-5.000000000000000000e-01
3.749270915985107422e+00,4.210627499692860454e+01,-5.000000000000000000e-01
3.799479722976684570e+00,3.335150494806225652e+01,-5.000000000000000000e-01
3.849307537078857422e+00,2.007045922767317947e+01,5.000000000000000000e-01
3.899260759353637695e+00,3.871156824328654267e+00,5.000000000000000000e-01
3.949205160140991211e+00,-9.945895225582850330e+00,5.000000000000000000e-01
3.999205350875854492e+00,-1.262592687319499696e+01,5.000000000000000000e-01
4.049423694610595703e+00,-5.598288330567594784e+00,5.000000000000000000e-01
4.099249601364135742e+00,6.908526024955753186e+00,5.000000000000000000e-01
4.149130582809448242e+00,2.245270958110619830e+01,5.000000000000000000e-01
4.199164628982543945e+00,3.585286781916693144e+01,-5.000000000000000000e-01
4.249217033386230469e+00,4.454808160919744608e+01,-5.000000000000000000e-01
4.299354553222656250e+00,4.365473772666005914e+01,-5.000000000000000000e-01
4.349267244338989258e+00,3.424484883059963636e+01,-5.000000000000000000e-01
4.399329423904418945e+00,2.114247188671803812e+01,5.000000000000000000e-01
4.449228286743164062e+00,5.121838259880990840e+00,5.000000000000000000e-01
4.499341487884521484e+00,-8.873882566537993455e+00,5.000000000000000000e-01
4.549307107925415039e+00,-1.208992054367256586e+01,5.000000000000000000e-01
4.599248170852661133e+00,-4.883613224537687536e+00,5.000000000000000000e-01
4.649206638336181641e+00,6.729857248448276152e+00,5.000000000000000000e-01
4.699185132980346680e+00,2.209537202809124068e+01,5.000000000000000000e-01
4.749346494674682617e+00,3.543597400731614755e+01,-5.000000000000000000e-01
4.799445867538452148e+00,4.436941283268996017e+01,-5.000000000000000000e-01
4.849331378936767578e+00,4.347606895015258033e+01,-5.000000000000000000e-01
4.899421930313110352e+00,3.454263012477876060e+01,-5.000000000000000000e-01
4.949312686920166016e+00,2.114247188671803457e+01,5.000000000000000000e-01
4.999362468719482422e+00,4.943169483373513806e+00,5.000000000000000000e-01
5.049399614334106445e+00,-9.886338966747027612e+00,5.000000000000000000e-01
5.099443197250366211e+00,-1.357882701456820485e+01,5.000000000000000000e-01
5.149319648742675781e+00,-6.968082283791579457e+00,5.000000000000000000e-01
5.199383974075317383e+00,5.240950777552638939e+00,5.000000000000000000e-01
5.249485015869140625e+00,2.078513433370308405e+01,5.000000000000000000e-01
5.299336671829223633e+00,3.484041141895789195e+01,-5.000000000000000000e-01
5.349388360977172852e+00,4.371429398549588541e+01,-5.000000000000000000e-01
5.399348974227905273e+00,4.317828765597345608e+01,-5.000000000000000000e-01
5.449235439300537109e+00,3.400662379525633838e+01,-5.000000000000000000e-01
5.499376773834228516e+00,2.054690929835978608e+01,5.000000000000000000e-01
5.549320220947265625e+00,4.288050636179432828e+00,5.000000000000000000e-01
5.599496364593505859e+00,-9.707670190239548802e+00,5.000000000000000000e-01
5.649462699890136719e+00,-1.208992054367256763e+01,5.000000000000000000e-01
5.699564695358276367e+00,-5.062282001045162794e+00,5.000000000000000000e-01
5.753008842468261719e+00,7.444532354478181624e+00,5.000000000000000000e-01
5.799503087997436523e+00,2.352472224015105695e+01,5.000000000000000000e-01
5.849342346191406250e+00,3.626976163101770823e+01,-5.000000000000000000e-01
5.899257659912109375e+00,4.395251902083918338e+01,-5.000000000000000000e-01
5.949404716491699219e+00,4.347606895015258033e+01,-5.000000000000000000e-01
5.999341964721679688e+00,3.394706753642050501e+01,-5.000000000000000000e-01
6.049355983734130859e+00,2.030868426301648100e+01,5.000000000000000000e-01
6.099383115768432617e+00,5.240950777552639828e+00,5.000000000000000000e-01
6.149409294128417969e+00,-8.516545013523039387e+00,5.000000000000000000e-01
6.199315309524536133e+00,-1.167302673182178907e+01,5.000000000000000000e-01
6.249233484268188477e+00,-4.466719412686911639e+00,5.000000000000000000e-01
6.299435377120971680e+00,7.504088613314007894e+00,5.000000000000000000e-01
6.349242925643920898e+00,2.263137835761367711e+01,5.000000000000000000e-01
6.399273872375488281e+00,3.585286781916693144e+01,-5.000000000000000000e-01
6.449245214462280273e+00,4.430985657385414100e+01,-5.000000000000000000e-01
6.499178886413574219e+00,4.335695643248094200e+01,-5.000000000000000000e-01
6.549243927001953125e+00,3.341106120689808279e+01,-5.000000000000000000e-01
6.599333286285400391e+00,2.072557807486726489e+01,5.000000000000000000e-01
6.649172544479370117e+00,4.645388189194385120e+00,5.000000000000000000e-01
6.699267864227294922e+00,-9.588557672567898038e+00,5.000000000000000000e-01
6.749366760253906250e+00,-1.268548313203082145e+01,5.000000000000000000e-01
6.799308538436889648e+00,-4.526275671522734356e+00,5.000000000000000000e-01
6.849269866943359375e+00,6.729857248448276152e+00,5.000000000000000000e-01
6.899341821670532227e+00,2.227404080459871949e+01,5.000000000000000000e-01
6.949242591857910156e+00,3.555508652498779298e+01,-5.000000000000000000e-01
6.999452590942382812e+00,4.419074405618248136e+01,-5.000000000000000000e-01
7.049309730529785156e+00,4.299961887946598438e+01,-5.000000000000000000e-01
7.099238634109497070e+00,3.382795501874885247e+01,-5.000000000000000000e-01
7.149337053298950195e+00,2.072557807486725778e+01,5.000000000000000000e-01
7.199441671371459961e+00,5.240950777552642492e+00,5.000000000000000000e-01
7.249382019042968750e+00,-8.933438825373817949e+00,5.000000000000000000e-01
7.299429893493652344e+00,-1.197080802600091509e+01,5.000000000000000000e-01
7.349412202835083008e+00,-4.943169483373514694e+00,5.000000000000000000e-01
7.399350166320800781e+00,7.027638542627403062e+00,5.000000000000000000e-01
7.449233770370483398e+00,2.215492828692707050e+01,5.000000000000000000e-01
7.499416112899780273e+00,3.579331156033110517e+01,-5.000000000000000000e-01
7.549384832382202148e+00,4.466719412686909152e+01,-5.000000000000000000e-01
7.599429368972778320e+00,4.407163153851084303e+01,-5.000000000000000000e-01
7.649306297302246094e+00,3.454263012477876771e+01,-5.000000000000000000e-01
7.699432134628295898e+00,2.144025318089716592e+01,5.000000000000000000e-01
7.749446153640747070e+00,5.121838259880989952e+00,5.000000000000000000e-01
7.799434661865234375e+00,-9.290776378388773793e+00,5.000000000000000000e-01
7.849498510360717773e+00,-1.214947680250839390e+01,5.000000000000000000e-01
7.899364948272705078e+00,-4.645388189194385120e+00,5.000000000000000000e-01
7.949424505233764648e+00,7.265863577970705478e+00,5.000000000000000000e-01
7.999242782592773438e+00,2.298871591062862763e+01,5.000000000000000000e-01
8.049540996551513672e+00,3.603153659567440315e+01,-5.000000000000000000e-01
8.099220752716064453e+00,4.466719412686909152e+01,-5.000000000000000000e-01
8.149275302886962891e+00,4.395251902083918338e+01,-5.000000000000000000e-01
8.199459791183471680e+00,3.501908019546537787e+01,-5.000000000000000000e-01
8.249320507049560547e+00,2.155936569856881491e+01,5.000000000000000000e-01
8.299334049224853516e+00,5.776957107075064712e+00,5.000000000000000000e-01
8.349310874938964844e+00,-8.814326307702168961e+00,5.000000000000000000e-01
8.399481058120727539e+00,-1.208992054367256941e+01,5.000000000000000000e-01
8.449437618255615234e+00,-5.419619554060116862e+00,5.000000000000000000e-01
8.499353170394897461e+00,6.908526024955752298e+00,5.000000000000000000e-01
8.549402236938476562e+00,2.245270958110619830e+01,5.000000000000000000e-01
8.599325895309448242e+00,3.621020537218187485e+01,-5.000000000000000000e-01
8.649421453475952148e+00,4.454808160919743898e+01,-5.000000000000000000e-01
8.699474096298217773e+00,4.389296276200336422e+01,-5.000000000000000000e-01
8.749268293380737305e+00,3.394706753642051211e+01,-5.000000000000000000e-01
8.799383401870727539e+00,1.977267793349405167e+01,5.000000000000000000e-01
8.849379539489746094e+00,3.632931788985350519e+00,5.000000000000000000e-01
8.899443149566650391e+00,-1.030323277859780617e+01,5.000000000000000000e-01
8.949405908584594727e+00,-1.345971449689655586e+01,5.000000000000000000e-01
8.999219179153442383e+00,-5.598288330567593007e+00,5.000000000000000000e-01
9.049173355102539062e+00,7.384976095642358018e+00,5.000000000000000000e-01
9.099266529083251953e+00,2.275049087528532610e+01,5.000000000000000000e-01
9.149348974227905273e+00,3.638887414868935366e+01,-5.000000000000000000e-01
9.199271440505981445e+00,4.526275671522735422e+01,-5.000000000000000000e-01
9.249366283416748047e+00,4.436941283268996727e+01,-5.000000000000000000e-01
9.299263000488281250e+00,3.519774897197284247e+01,-5.000000000000000000e-01
9.349337816238403320e+00,2.132114066322551338e+01,5.000000000000000000e-01
9.399327516555786133e+00,4.824056965701862154e+00,5.000000000000000000e-01
9.449223756790161133e+00,-1.000545148441867660e+01,5.000000000000000000e-01
9.499223470687866211e+00,-1.357882701456820485e+01,5.000000000000000000e-01
9.549215316772460938e+00,-6.848969766119926916e+00,5.000000000000000000e-01
9.599322319030761719e+00,5.419619554060114197e+00,5.000000000000000000e-01
9.649232864379882812e+00,2.120202814555386084e+01,5.000000000000000000e-01
9.699252605438232422e+00,3.489996767779372533e+01,-5.000000000000000000e-01
9.749310255050659180e+00,4.407163153851083592e+01,-5.000000000000000000e-01
9.799421072006225586e+00,4.305917513830180354e+01,-5.000000000000000000e-01
9.849335432052612305e+00,3.400662379525633838e+01,-5.000000000000000000e-01
9.899319887161254883e+00,2.132114066322551338e+01,5.000000000000000000e-01
9.949158668518066406e+00,5.181394518716811781e+00,5.000000000000000000e-01
9.999228954315185547e+00,-9.290776378388772017e+00,5.000000000000000000e-01
1.004927492141723633e+01,-1.238770183785169543e+01,5.000000000000000000e-01
1.009926581382751465e+01,-5.300507036388465210e+00,5.000000000000000000e-01
1.014922046661376953e+01,6.193850918925847715e+00,5.000000000000000000e-01
1.019939708709716797e+01,2.167847821624046745e+01,5.000000000000000000e-01
1.024923872947692871e+01,3.525730523080866874e+01,-5.000000000000000000e-01
1.029944109916687012e+01,4.395251902083919049e+01,-5.000000000000000000e-01
1.034937381744384766e+01,4.359518146782423997e+01,-5.000000000000000000e-01
1.039936256408691406e+01,3.364928624224138787e+01,-5.000000000000000000e-01
1.044931697845458984e+01,2.054690929835978608e+01,5.000000000000000000e-01
1.049927067756652832e+01,4.049825600836131301e+00,5.000000000000000000e-01
1.054944825172424316e+01,-9.767226449075375072e+00,5.000000000000000000e-01
1.059948825836181641e+01,-1.274503939086664772e+01,5.000000000000000000e-01
1.064942169189453125e+01,-5.419619554060117750e+00,5.000000000000000000e-01
1.069924092292785645e+01,6.491632213104975513e+00,5.000000000000000000e-01
1.074919319152832031e+01,2.269093461644949983e+01,5.000000000000000000e-01
1.079939889907836914e+01,3.531686148964449501e+01,-5.000000000000000000e-01
1.084921932220458984e+01,4.371429398549588541e+01,-5.000000000000000000e-01
1.089935874938964844e+01,4.299961887946598438e+01,-5.000000000000000000e-01
1.094933843612670898e+01,3.341106120689808279e+01,-5.000000000000000000e-01
1.099931740760803223e+01,1.953445289815075014e+01,5.000000000000000000e-01
1.104935812950134277e+01,3.632931788985350074e+00,5.000000000000000000e-01
1.109933328628540039e+01,-1.048190155510528143e+01,5.000000000000000000e-01
1.114917755126953125e+01,-1.345971449689655586e+01,5.000000000000000000e-01
1.119937348365783691e+01,-5.657844589403417501e+00,5.000000000000000000e-01
1.124930644035339355e+01,7.027638542627403062e+00,5.000000000000000000e-01
1.129940652847290039e+01,2.304827216946445390e+01,5.000000000000000000e-01
1.134936428070068359e+01,3.680576796054013755e+01,-5.000000000000000000e-01
1.139944267272949219e+01,4.538186923289899966e+01,-5.000000000000000000e-01
1.144941806793212891e+01,4.442896909152579354e+01,-5.000000000000000000e-01
1.149936842918395996e+01,3.466174264245042025e+01,-5.000000000000000000e-01
1.154944562911987305e+01,2.155936569856881491e+01,5.000000000000000000e-01
1.159936738014221191e+01,5.002725742209339188e+00,5.000000000000000000e-01
1.164920043945312500e+01,-9.231220119552943970e+00,5.000000000000000000e-01
1.169926285743713379e+01,-1.250681435552334442e+01,5.000000000000000000e-01
1.174936103820800781e+01,-5.300507036388463433e+00,5.000000000000000000e-01
1.179920816421508789e+01,6.253407177761674873e+00,5.000000000000000000e-01
1.184922456741333008e+01,2.155936569856881491e+01,5.000000000000000000e-01
1.189922809600830078e+01,3.519774897197284247e+01,-5.000000000000000000e-01
1.194919776916503906e+01,4.436941283268996727e+01,-5.000000000000000000e-01
1.199942851066589355e+01,4.299961887946597727e+01,-5.000000000000000000e-01
1.204919981956481934e+01,3.430440508943546263e+01,-5.000000000000000000e-01
1.209931302070617676e+01,2.072557807486725778e+01,5.000000000000000000e-01
1.214933967590332031e+01,4.407163153851085369e+00,5.000000000000000000e-01
1.219944882392883301e+01,-1.030323277859780262e+01,5.000000000000000000e-01
1.224943923950195312e+01,-1.334060197922490332e+01,5.000000000000000000e-01
1.229934072494506836e+01,-6.312963436597497591e+00,5.000000000000000000e-01
1.234941005706787109e+01,6.610744730776626277e+00,5.000000000000000000e-01
1.239953398704528809e+01,2.191670325158377253e+01,5.000000000000000000e-01
1.244938850402832031e+01,3.549553026615198092e+01,-5.000000000000000000e-01
1.249945330619812012e+01,4.454808160919744608e+01,-5.000000000000000000e-01
1.254937028884887695e+01,4.395251902083919049e+01,-5.000000000000000000e-01
1.259933161735534668e+01,3.382795501874885957e+01,-5.000000000000000000e-01
1.264930272102355957e+01,2.018957174534483201e+01,5.000000000000000000e-01
1.269947481155395508e+01,3.692488047821177677e+00,5.000000000000000000e-01
1.274948263168334961e+01,-1.107746414346353525e+01,5.000000000000000000e-01
1.279941058158874512e+01,-1.429350212059810943e+01,5.000000000000000000e-01
1.284927296638488770e+01,-6.789413507284104199e+00,5.000000000000000000e-01
1.289940738677978516e+01,5.955625883582546187e+00,5.000000000000000000e-01
1.294940447807312012e+01,2.227404080459872304e+01,5.000000000000000000e-01
1.299941277503967285e+01,3.615064911334605569e+01,-5.000000000000000000e-01
1.304940652847290039e+01,4.448852535036161981e+01,-5.000000000000000000e-01
1.309943127632141113e+01,4.377385024433171168e+01,-5.000000000000000000e-01
1.314947175979614258e+01,3.406618005409215755e+01,-5.000000000000000000e-01
